# composition,0.535NaCl-0.315MgCl2-0.15CaCl2
# source,Wei, 2022
# temperature_K,1023
# raw_file,0.535NaCl-0.315MgCl2-0.15CaCl2_Wei_2022_1023.0_RIM.csv
# savgol,True
# grid_points,2000
r (A),Ca-Ca,Ca-Cl,Mg-Cl,Mg-Mg,Na-Cl,Na-Na
0.0,0.0,0.0,0.0,0.0,0.0,0.0
0.007443771500750375,0.0,0.004234820216665007,0.0,0.0,0.0,0.0
0.01488754300150075,0.0,0.008469640433330015,0.0,0.0,0.0,0.0
0.022331314502251128,0.0,0.012704460649995024,0.0,0.0,0.0,0.0
0.0297750860030015,0.0,0.01693928086666003,0.0,0.0,0.0,0.0
0.037218857503751875,0.0,0.02117410108332504,0.017302780458697275,0.0,0.0,0.0
0.044662629004502255,0.0,0.025408921299990048,0.01902692789340304,0.0,0.0,0.0
0.05210640050525263,0.0,0.029643741516655053,0.020751075328108805,0.0,0.0,0.0
0.059550172006003,0.0,0.03387856173332006,0.02247522276281457,0.0,0.0,0.0
0.06699394350675338,0.0,0.038113381949985065,0.024199370197520338,0.0,0.0,0.0
0.07443771500750375,0.0,0.04234820216665008,0.0259235176322261,0.0,0.0,0.0
0.08188148650825412,0.0030053852478768715,0.04658302238331508,0.027647665066931865,0.0,0.0,0.0
0.08932525800900451,0.006969573526026133,0.050817842599980095,0.029371812501637635,0.030601691237280036,0.0,0.0
0.09676902950975488,0.010933761804175386,0.0550526628166451,0.031095959936343398,0.030416322769018282,0.0,0.03273331675860335
0.10421280101050526,0.01489795008232464,0.05928748303331011,0.032820107371049165,0.030230954300756528,0.030011084717369928,0.032420443808654865
0.11165657251125563,0.018862138360473894,0.06352230324997511,0.03454425480575493,0.030045585832494774,0.029794697883671558,0.032107570858706386
0.119100344012006,0.02282632663862315,0.06775712346664012,0.0362684022404607,0.02986021736423302,0.02957831104997319,0.031794697908757906
0.12654411551275638,0.026790514916772402,0.07199194368330512,0.037992549675166465,0.029674848895971266,0.02936192421627482,0.03148182495880942
0.13398788701350675,0.030754703194921656,0.07311953272205159,0.03971669710987223,0.02948948042770951,0.029145537382576445,0.03116895200886094
0.14143165851425712,0.03471889147307091,0.07301797848754979,0.04108958924298963,0.029304111959447755,0.028929150548878076,0.030856079058912456
0.1488754300150075,0.038683079751220165,0.07291642425304799,0.042259417452581,0.029118743491186,0.028712763715179706,0.030543206108963977
0.15631920151575787,0.040596159808026576,0.0728148700185462,0.043429245662172364,0.028933375022924247,0.028496376881481336,0.030230333159015493
0.16376297301650825,0.040587393030512287,0.07271331578404439,0.044599073871763734,0.028748006554662493,0.028279990047782963,0.02991746020906701
0.17120674451725862,0.040578626252998,0.07261176154954259,0.0457689020813551,0.02856263808640074,0.028063603214084593,0.02960458725911853
0.17865051601800902,0.04056985947548371,0.07251020731504079,0.04693873029094647,0.028377269618138985,0.02784721638038622,0.029291714309170047
0.1860942875187594,0.04056109269796942,0.07240865308053898,0.048108558500537836,0.028195084009324783,0.02763082954668785,0.028978841359221564
0.19353805901950977,0.04055232592045513,0.07230709884603718,0.049278386710129206,0.028085533772414947,0.02741444271298948,0.02866596840927308
0.20098183052026014,0.04054355914294083,0.07220554461153539,0.050448214919720576,0.027975983535505115,0.02719805587929111,0.0283530954593246
0.20842560202101051,0.04053479236542654,0.07210399037703358,0.05161804312931194,0.027866433298595283,0.02703701053726154,0.028040222509376118
0.2158693735217609,0.040526025587912254,0.07200243614253178,0.05278787133890331,0.02775688306168545,0.026901955380471795,0.027727349559427635
0.22331314502251126,0.040517258810397964,0.07190088190802998,0.05395769954849468,0.027647332824775616,0.02676690022368205,0.027414476609479155
0.23075691652326163,0.040508492032883675,0.07179932767352817,0.05512752775808604,0.027537782587865784,0.026631845066892302,0.02710160365953067
0.238200688024012,0.040499725255369386,0.07170304633912764,0.05629735596767741,0.027428232350955952,0.026496789910102556,0.026788730709582192
0.24564445952476238,0.040490958477855096,0.07161326260486649,0.056926298571547386,0.02731868211404612,0.02636173475331281,0.02647585775963371
0.25308823102551276,0.04048219170034081,0.07152347887060533,0.05658258459277507,0.027209131877136285,0.026226679596523063,0.026168358093109103
0.26053200252626313,0.04042602795866537,0.07143369513634416,0.056238870614002755,0.027099581640226453,0.026091624439733313,0.025861722547703945
0.2679757740270135,0.04021974247148527,0.07134391140208302,0.055895156635230446,0.02699003140331662,0.02595656928294357,0.02555508700229879
0.2754195455277639,0.040013456984305175,0.07125412766782185,0.05555144265645813,0.02688048116640679,0.02582151412615382,0.025248451456893632
0.28286331702851425,0.03980717149712507,0.07116434393356069,0.055207728677685815,0.026770930929496953,0.025686458969364077,0.024941815911488474
0.2903070885292646,0.03960088600994497,0.07107456019929954,0.054864014698913506,0.02666138069258712,0.025551403812574328,0.02463518036608332
0.297750860030015,0.03939460052276487,0.07098477646503838,0.05452030072014119,0.026582089696539718,0.025416348655784585,0.02432854482067816
0.30519463153076537,0.039188315035584766,0.07089499273077722,0.054176586741368875,0.02651165378832464,0.025281293498994835,0.024021909275273003
0.31263840303151574,0.03898202954840467,0.07080520899651607,0.053832872762596566,0.026441217880109568,0.025175298386391792,0.02371527372986785
0.3200821745322661,0.03877574406122457,0.07071542526225491,0.05348915878382425,0.02637078197189449,0.025111450463712107,0.02340863818446269
0.3275259460330165,0.038569458574044466,0.07062564152799375,0.053145444805051935,0.026300346063679418,0.025047602541032422,0.023102002639057533
0.33496971753376686,0.03836317308686436,0.0705358577937326,0.052801730826279626,0.02622991015546434,0.024983754618352737,0.022795367093652378
0.34241348903451724,0.03815688759968426,0.07045886660354465,0.05245801684750731,0.026159474247249268,0.024919906695673052,0.02248873154824722
0.3498572605352676,0.037950602112504166,0.07044032215720708,0.052138895921253495,0.02608903833903419,0.024856058772993368,0.022182096002842062
0.35730103203601804,0.03774431662532406,0.07042177771086951,0.052098581465921195,0.02601860243081912,0.024792210850313683,0.021875460457436904
0.3647448035367684,0.03753803113814396,0.07040323326453193,0.0520582670105889,0.02594816652260404,0.024728362927633998,0.021568824912031746
0.3721885750375188,0.037348119923706,0.07038468881819436,0.052017952555256604,0.02587773061438897,0.024664515004954313,0.02126218936662659
0.37963234653826916,0.03715882625544196,0.07036614437185679,0.051977638099924305,0.02580729470617389,0.024600667082274628,0.020955553821221433
0.38707611803901953,0.03696953258717792,0.07034759992551921,0.05193732364459201,0.02573685879795882,0.024536819159594943,0.020648918275816275
0.3945198895397699,0.036780238918913875,0.07032905547918164,0.05189700918925971,0.02566642288974374,0.024472971236915258,0.02034228273041112
0.4019636610405203,0.036590945250649834,0.07031051103284407,0.051856694733927414,0.02553692799936441,0.024409123314235573,0.020062385915485825
0.40940743254127065,0.036401651582385786,0.0702919665865065,0.05181638027859512,0.02534959919351732,0.024345275391555888,0.019874738403598463
0.41685120404202103,0.036212357914121744,0.07027342214016892,0.05177606582326282,0.025162270387670226,0.024264718366956903,0.0196870908917111
0.4242949755427714,0.0360230642458577,0.07025487769383135,0.05173575136793052,0.024974941581823135,0.024077799830334364,0.01949944337982374
0.4317387470435218,0.03583377057759366,0.07023633324749377,0.05169543691259823,0.024787612775976044,0.02389088129371182,0.01931179586793638
0.43918251854427215,0.03564447690932962,0.0702177888011562,0.05165512245726593,0.02460028397012895,0.023703962757089282,0.019124148356049017
0.4466262900450225,0.03545518324106557,0.07019924435481863,0.05161480800193363,0.02441295516428186,0.023517044220466743,0.018936500844161652
0.4540700615457729,0.03526588957280153,0.07016822131113404,0.05157449354660134,0.024225626358434768,0.0233301256838442,0.01874885333227429
0.46151383304652327,0.03507659590453749,0.07013598168662866,0.05153417909962716,0.024038297552587674,0.02314320714722166,0.01856120582038693
0.46895760454727364,0.03488730223627345,0.07010374206212329,0.05149386465468082,0.023850968746740583,0.02295628861059912,0.018373558308499568
0.476401376048024,0.03471491918691693,0.07007150243761791,0.05145355020973447,0.02366363994089349,0.02276937007397658,0.018185910796612206
0.4838451475487744,0.034550228132540245,0.07003926281311254,0.05141323576478812,0.023476311135046397,0.02258245153735404,0.017998263284724845
0.49128891904952476,0.03438553707816355,0.07000702318860716,0.05137292131984177,0.023288982329199306,0.0223955330007315,0.017810615772837483
0.49873269055027514,0.03422084602378687,0.06997478356410179,0.05133260687489543,0.023101653523352212,0.022208614464108958,0.017622968260950122
0.5061764620510255,0.03405615496941018,0.06994254393959641,0.05129229242994908,0.02292036113465172,0.02202169592748642,0.01743532074906276
0.5136202335517759,0.0338914639150335,0.06991030431509104,0.051251977985002736,0.022758516409018787,0.02183477739086388,0.017247673237175395
0.5210640050525263,0.03372677286065681,0.06987806469058566,0.051211663540056386,0.022596671683385854,0.021647858854241336,0.017060025725288034
0.5285077765532766,0.03356208180628013,0.0698458250660803,0.05117134909511004,0.022434826957752917,0.021482895498313285,0.016872378213400673
0.535951548054027,0.033397390751903434,0.06981358544157491,0.05113103465016369,0.022272982232119983,0.02132140477464391,0.01668473070151331
0.5433953195547774,0.03323269969752675,0.06978134581706955,0.05109072020521735,0.02211113750648705,0.021159914050974532,0.01649708318962595
0.5508390910555278,0.033068008643150064,0.06974910619256416,0.051050405760271,0.021949292780854116,0.020998423327305157,0.016309435677738588
0.5582828625562781,0.03290331758877338,0.06971393231886501,0.051010091315324656,0.02178744805522118,0.020836932603635783,0.016192600571711895
0.5657266340570285,0.03273862653439669,0.0696771276369146,0.05089968431940717,0.021625603329588246,0.020675441879966408,0.016125387606879503
0.5731704055577789,0.03257393548002001,0.06964032295496418,0.050726731099421114,0.021463758603955312,0.020513951156297033,0.01605817464204711
0.5806141770585292,0.032422521084428696,0.06960351827301377,0.05055377787943506,0.02130191387832238,0.02035246043262766,0.01599096167721472
0.5880579485592796,0.03229012981016331,0.06956671359106335,0.05038082465944901,0.021140069152689442,0.020190969708958284,0.015923748712382328
0.59550172006003,0.032157738535897935,0.06952990890911294,0.05020787143946295,0.02097822442705651,0.02002947898528891,0.015856535747549937
0.6029454915607804,0.03202534726163255,0.06949310422716252,0.0500349182194769,0.020816379701423575,0.019867988261619535,0.01578932278271754
0.6103892630615307,0.031892955987367175,0.06945629954521211,0.049861964999490846,0.02065453497579064,0.019706497537950157,0.01572210981788515
0.6178330345622811,0.03176056471310179,0.0694194948632617,0.04968901177950479,0.02055003543374959,0.019545006814280782,0.01565489685305276
0.6252768060630315,0.031628173438836414,0.06938269018131127,0.04951605855951874,0.020447401009325624,0.019383516090611407,0.015587683888220369
0.6327205775637819,0.03149578216457103,0.06934588549936085,0.049343105339532685,0.020344766584901662,0.019307069103100264,0.015520470923387977
0.6401643490645322,0.031363390890305654,0.06930908081741044,0.04917015211954663,0.020242132160477697,0.01928945330108792,0.015453257958555585
0.6476081205652826,0.03123099961604027,0.06927227613546003,0.048997198899560584,0.02013949773605373,0.019271837499075573,0.015386044993723194
0.655051892066033,0.03109860834177489,0.06923547145350961,0.048824245679574524,0.02003686331162977,0.01925422169706323,0.015318832028890802
0.6624956635667834,0.03096621706750951,0.0691765572400504,0.04865129245958848,0.019934228887205804,0.019236605895050884,0.01525161906405841
0.6699394350675337,0.03083382579324413,0.06908069276380088,0.04865418901781708,0.01983159446278184,0.01921899009303854,0.015184406099226019
0.6773832065682841,0.03070143451897875,0.06898482828755136,0.04917866137940079,0.019728960038357876,0.019201374291026196,0.015117193134393626
0.6848269780690345,0.03057444403319943,0.06888896381130184,0.049703133740984486,0.01962632561393391,0.01918375848901385,0.015049980169561234
0.6922707495697848,0.030482136064413697,0.06879309933505233,0.05022760610256819,0.01952369118950995,0.019166142687001505,0.014982767204728843
0.6997145210705352,0.030389828095627965,0.0686972348588028,0.05075207846415189,0.019421056765085983,0.01914852688498916,0.014915554239896451
0.7071582925712856,0.03029752012684223,0.06860137038255329,0.051276550825735595,0.01931842234066202,0.019130911082976817,0.01484834127506406
0.7146020640720361,0.030205212158056497,0.06850550590630376,0.05180102318731931,0.019215787916238056,0.01911329528096447,0.014946710093833467
0.7220458355727865,0.03011290418927076,0.06840964143005425,0.052325495548903006,0.019410353044434978,0.019095679478952125,0.015053568260982437
0.7294896070735368,0.03002059622048503,0.06831377695380474,0.05284996791048671,0.019732210507484502,0.01907806367693978,0.015160426428131405
0.7369333785742872,0.029928288251699298,0.06821791247755521,0.05337444027207041,0.020054067970534026,0.01905514711904615,0.015267284595280374
0.7443771500750376,0.029835980282913562,0.0681220480013057,0.053898912633654116,0.020375925433583547,0.019020901925050064,0.015374142762429342
0.751820921575788,0.02974367231412783,0.06802618352505618,0.054423384995237814,0.02069778289663307,0.018986656731053975,0.015481000929578312
0.7592646930765383,0.029651364345342098,0.06793031904880666,0.05494785735682152,0.021019640359682595,0.01895241153705789,0.015587859096727281
0.7667084645772887,0.029559056376556363,0.06787867012701583,0.05547232971840522,0.02134149782273212,0.018918166343061805,0.01569471726387625
0.7741522360780391,0.02946674840777063,0.06820011450735103,0.055996802079988924,0.021663355285781644,0.01888392114906572,0.015801575431025217
0.7815960075787894,0.0293744404389849,0.06852155888768621,0.056522558568513195,0.021985212748831164,0.018849675955069634,0.015908433598174187
0.7890397790795398,0.029282132470199163,0.0688430032680214,0.057048346855705125,0.02230707021188069,0.018815430761073546,0.016015291765323156
0.7964835505802902,0.029233741586969182,0.06916444764835658,0.05757413514289706,0.022628927674930212,0.01878118556707746,0.016122149932472126
0.8039273220810406,0.029192593186421437,0.06948589202869176,0.05809992343008899,0.022950785137979733,0.018746940373081375,0.016229008099621092
0.8113710935817909,0.02915144478587369,0.06980733640902696,0.05862571171728092,0.023272642601029257,0.01871269517908529,0.016335866266770062
0.8188148650825413,0.029110296385325946,0.07012878078936215,0.059151500004472855,0.02359450006407878,0.0186784499850892,0.01644272443391903
0.8262586365832917,0.0290691479847782,0.07045022516969733,0.059677288291664785,0.02395862141999703,0.018644204791093116,0.016549582601068
0.8337024080840421,0.029027999584230454,0.07077166955003251,0.06020307657885672,0.02437836632594735,0.01860995959709703,0.016656440768216967
0.8411461795847924,0.02898685118368271,0.0710931139303677,0.06072886486604865,0.02479811123189767,0.018576508298787056,0.016763298935365937
0.8485899510855428,0.028945702783134963,0.0714145583107029,0.06125465315324058,0.02521785613784799,0.018559365023707974,0.016870157102514906
0.8560337225862932,0.02890455438258722,0.07173600269103808,0.061780441440432515,0.025637601043798308,0.01854222174862889,0.016977015269663876
0.8634774940870436,0.028863405982039476,0.07205744707137327,0.062306229727624445,0.02605734594974863,0.018525078473549807,0.017047063882975482
0.8709212655877939,0.02882225758149173,0.07237889145170845,0.06283201801481637,0.02647709085569895,0.018507935198470726,0.017036875741277366
0.8783650370885443,0.028781109180943985,0.07280225753061048,0.06335780630200831,0.026896835761649272,0.018490791923391644,0.017026687599579253
0.8858088085892947,0.02873996078039624,0.07324538399382421,0.06384809519303951,0.02731658066759959,0.018473648648312562,0.017016499457881137
0.893252580090045,0.028698812379848494,0.07368851045703796,0.06432313597516534,0.02773632557354991,0.018456505373233477,0.01700631131618302
0.9006963515907954,0.028657663979300748,0.0741316369202517,0.06479817675729116,0.02815607047950023,0.018439362098154395,0.016996123174484908
0.9081401230915458,0.028640758821177177,0.07457476338346543,0.06527321753941699,0.02857581538545055,0.018422218823075313,0.01698593503278679
0.9155838945922962,0.0286512260080362,0.07501788984667916,0.06574825832154282,0.028995560291400872,0.01840507554799623,0.016975746891088675
0.9230276660930465,0.028661693194895217,0.0754610163098929,0.06622329910366866,0.02941530519735119,0.01838793227291715,0.01696555874939056
0.9304714375937969,0.028672160381754238,0.07590414277310663,0.06669833988579449,0.02983505010330151,0.018370788997838065,0.016955370607692446
0.9379152090945473,0.02868262756861326,0.07634726923632038,0.06717338066792032,0.03025479500925183,0.018353645722758983,0.01694518246599433
0.9453589805952977,0.028693094755472277,0.07679039569953411,0.06764842145004615,0.030240817191390084,0.0183365024476799,0.016934994324296213
0.952802752096048,0.0287035619423313,0.07723352216274784,0.06812346223217199,0.030205325101569886,0.01831935917260082,0.0169248061825981
0.9602465235967984,0.02871402912919032,0.07767664862596158,0.06859850301429782,0.03016983301174969,0.018302215897521738,0.016914618040899984
0.9676902950975488,0.028724496316049338,0.07811977508917531,0.06907354379642364,0.030134340921929494,0.018285072622442652,0.016904429899201868
0.9751340665982992,0.02873496350290836,0.07856290155238906,0.06954858457854947,0.030098848832109296,0.01826792934736357,0.01689424175750375
0.9825778380990495,0.02874543068976738,0.07900602801560279,0.0700236253606753,0.030063356742289098,0.01825078607228449,0.01688405361580564
0.9900216095997999,0.0287558978766264,0.07944915447881652,0.07027427457746509,0.030027864652468903,0.018233642797205407,0.016873865474107522
0.9974653811005503,0.02876636506348542,0.07989228094203026,0.07021911975447052,0.029992372562648705,0.018216499522126322,0.016863677332409406
1.0049091526013008,0.028776832250344442,0.08004259933449208,0.07016396493147598,0.029956880472828507,0.01819935624704724,0.01685160130689161
1.012352924102051,0.02878729943720346,0.07999025371186028,0.07010881010848141,0.02992138838300831,0.01818221297196816,0.016835682217145414
1.0197966956028015,0.02879776662406248,0.07993790808922847,0.07005365528548686,0.02988589629318811,0.01816870887937011,0.016819763127399218
1.0272404671035518,0.028809806252224967,0.07988556246659666,0.0699985004624923,0.029850404203367917,0.018163435914830838,0.016803844037653025
1.0346842386043023,0.02882248773943855,0.07983321684396485,0.06994334563949774,0.029491552617418475,0.018158162950291566,0.01678792494790683
1.0421280101050525,0.028835169226652135,0.07978087122133304,0.06988819081650319,0.029003338752916046,0.01815288998575229,0.016772005858160636
1.049571781605803,0.02884785071386572,0.07972852559870124,0.06983303599350862,0.0285151248884136,0.01814761702121302,0.01675608676841444
1.0570155531065533,0.028860532201079304,0.07967617997606943,0.06977788117051408,0.02802691102391117,0.018142344056673747,0.016740167678668243
1.0644593246073037,0.02887321368829289,0.07962383435343762,0.06972272634751951,0.027538697159408727,0.018137071092134475,0.01672424858892205
1.071903096108054,0.028885895175506476,0.07957148873080581,0.06966757152452496,0.027050483294906297,0.018131798127595203,0.016708329499175854
1.0793468676088045,0.028898576662720058,0.079519143108174,0.0696124167015304,0.026562269430403854,0.01812652516305593,0.016692410409429658
