# composition,0.7LiCl-0.3CaCl2
# source,Liang, 2024
# temperature_K,1073
# raw_file,0.7LiCl-0.3CaCl2_Liang_2024_1073.0_RIM.csv
# savgol,True
# grid_points,2000
r (A),Ca-Ca,Ca-Cl,Ca-Li,Cl-Cl,Li-Cl,Li-Li
0.0,0.0,0.0,0.0,0.0,0.0,0.0
0.0049475287094096505,0.000298275786099124,0.0,0.00017687957812543317,0.0,0.0,0.0
0.009895057418819301,0.000596551572198248,0.0,0.00035375915625086634,0.0,0.0,0.0
0.014842586128228951,0.000894827358297372,0.0,0.0005306387343762995,0.0,0.0,0.0
0.019790114837638602,0.001193103144396496,0.0,0.0007075183125017327,0.0,0.0,0.0
0.02473764354704825,0.00149137893049562,0.0,0.0008843978906271657,0.0,0.0,0.0
0.029685172256457903,0.001789654716594744,0.0,0.001061277468752599,0.0,0.0,0.0
0.034632700965867555,0.0020879305026938683,0.0,0.0012381570468780322,0.0,0.0,0.0
0.039580229675277204,0.002386206288792992,0.0025806832911206647,0.0014150366250034654,0.0,0.0,0.0
0.04452775838468685,0.002684482074892116,0.0026366657463903586,0.0015919162031288983,0.0,0.0,0.0
0.0494752870940965,0.00298275786099124,0.0026926482016600525,0.0017687957812543315,0.0,0.0,0.0
0.05442281580350616,0.003281033647090364,0.0027486306569297464,0.0019456753593797649,0.0,0.0,0.0
0.059370344512915806,0.003579309433189488,0.0028046131121994403,0.002122554937505198,0.0,0.0,0.0
0.06431787322232546,0.0038775852192886122,0.0028605955674691347,0.0022994345156306314,0.0,0.007296323962253121,0.0
0.06926540193173511,0.004175861005387737,0.0029165780227388286,0.0024763140937560644,0.0,0.0072910610427854424,0.0
0.07421293064114476,0.0044741367914868605,0.0029725604780085225,0.0026531936718814974,0.0,0.007285798123317764,0.0
0.07916045935055441,0.004772412577585984,0.0030285429332782164,0.0028300732500069307,0.0,0.007280535203850084,0.0
0.08410798805996406,0.005070688363685108,0.0030845253885479103,0.0030069528281323637,0.0,0.007275272284382405,0.0
0.0890555167693737,0.005368964149784232,0.003140507843817604,0.0031838324062577967,0.018779150073595742,0.007270009364914726,0.0
0.09400304547878335,0.005667239935883356,0.003196490299087298,0.0033607119843832296,0.018774543510014827,0.007264746445447047,0.0
0.098950574188193,0.00596551572198248,0.003252472754356992,0.003537591562508663,0.01876993694643391,0.0072594835259793674,0.0
0.10389810289760266,0.006263791508081604,0.003308455209626686,0.0037144711406340964,0.018765330382852996,0.0072542206065116886,0.0
0.10884563160701231,0.006562067294180728,0.0033644376648963798,0.0038913507187595298,0.018760723819272084,0.00724895768704401,0.0
0.11379316031642196,0.006860343080279852,0.0034204201201660737,0.004068230296884963,0.01875611725569117,0.007243694767576331,0.0
0.11874068902583161,0.007158618866378976,0.0034764025754357676,0.004245109875010396,0.018751510692110254,0.007238431848108652,0.0
0.12368821773524126,0.0072210830848908345,0.0035323850307054615,0.004421989453135829,0.018746904128529338,0.007233168928640972,0.0
0.12863574644465092,0.007212989511526196,0.003577748846387653,0.004598869031261263,0.018742297564948423,0.007227906009173293,0.0
0.13358327515406057,0.0072048959381615565,0.003613146316331459,0.004610947826741745,0.01873769100136751,0.007222643089705614,0.0
0.13853080386347022,0.007196802364796917,0.003648543786275265,0.004568240897709033,0.018733084437786596,0.0072173801702379355,0.0
0.14347833257287987,0.007188708791432278,0.003683941256219071,0.004525533968676321,0.01872847787420568,0.007212117250770256,0.0
0.14842586128228952,0.007180615218067638,0.0037193387261628776,0.00448282703964361,0.018723871310624765,0.007206854331302577,0.0
0.15337338999169917,0.007172521644702999,0.0037547361961066837,0.004440120110610898,0.018719264747043853,0.007201591411834898,0.0
0.15832091870110881,0.00716442807133836,0.0037901336660504897,0.004397413181578186,0.018714658183462938,0.007196328492367219,0.0
0.16326844741051846,0.007156334497973721,0.003825531135994296,0.004354706252545474,0.018710051619882023,0.007189239735832221,0.0
0.1682159761199281,0.007148240924609081,0.0038609286059381022,0.004311999323512762,0.018705445056301107,0.007181341861996254,0.0
0.17316350482933776,0.007140147351244442,0.0038963260758819083,0.004269292394480051,0.018700838492720195,0.007173443988160287,0.0
0.1781110335387474,0.007132053777879802,0.003931723545825714,0.004226585465447339,0.018694617656779315,0.00716554611432432,0.0
0.18305856224815706,0.007123960204515163,0.003967121015769521,0.004183878536414627,0.01868829554538206,0.007157648240488353,0.0
0.1880060909575667,0.007115866631150524,0.004002518485713327,0.0041411716073819155,0.018681973433984804,0.007149750366652386,0.0
0.19295361966697636,0.007107773057785885,0.004037915955657133,0.004098464678349204,0.01867565132258755,0.007141852492816419,0.0
0.197901148376386,0.0070996794844212455,0.004073313425600939,0.004055757749316492,0.018669329211190293,0.007133954618980452,0.0
0.20284867708579568,0.007091585911056606,0.004108710895544746,0.00401305082028378,0.018663007099793037,0.007126056745144485,0.0
0.20779620579520533,0.007083492337691967,0.004144108365488551,0.003970343891251068,0.01865668498839578,0.007118158871308518,0.0
0.21274373450461498,0.007075398764327327,0.004179505835432358,0.003927636962218356,0.018650362876998526,0.007110260997472551,0.0
0.21769126321402463,0.007067305190962689,0.004163367029088768,0.0038849300331856443,0.01864404076560127,0.007102363123636584,0.0
0.22263879192343428,0.007060599619833425,0.00414518698764617,0.0038422231041529325,0.01863771865420401,0.007094465249800617,0.0
0.22758632063284392,0.007054908358030013,0.004127006946203571,0.003799516175120221,0.018631396542806756,0.007086567375964649,0.0
0.23253384934225357,0.007049217096226601,0.004108826904760973,0.003756809246087509,0.0186250744314095,0.0070786695021286825,0.0
0.23748137805166322,0.00704352583442319,0.004090646863318375,0.0037141023170547973,0.018618752320012245,0.007070771628292716,0.0
0.24242890676107287,0.007037834572619779,0.004072466821875777,0.003671395388022086,0.01861243020861499,0.007062873754456749,0.0
0.24737643547048252,0.007032143310816367,0.004054286780433179,0.003628688458989374,0.018606108097217734,0.007054975880620782,0.0
0.25232396417989217,0.007026452049012955,0.00403610673899058,0.003585981529956662,0.018599785985820478,0.007047005290148973,0.0
0.25727149288930184,0.007020760787209543,0.004017926697547982,0.0035432746009239503,0.018593463874423222,0.007038967630935369,0.0
0.26221902159871147,0.007015069525406132,0.003999746656105384,0.0035005676718912384,0.018586662238343692,0.0070309299717217656,0.0
0.26716655030812114,0.0070093782636027205,0.003981566614662785,0.0034578607428585265,0.0185791011201902,0.007022892312508162,0.0
0.27211407901753076,0.007003687001799309,0.003963386573220187,0.0034529347946514054,0.0185715400020367,0.007014854653294558,0.0
0.27706160772694044,0.006997995739995897,0.003945206531777589,0.00348864122204917,0.018563978883883208,0.007006816994080955,0.0
0.28200913643635006,0.006992304478192485,0.003927026490334991,0.0035243476494469348,0.01855641776572971,0.006998779334867351,0.0
0.28695666514575974,0.006986613216389073,0.003908846448892392,0.0035600540768446994,0.018548856647576217,0.006990741675653747,0.0
0.29190419385516936,0.006980921954585662,0.003890666407449794,0.003595760504242464,0.01854129552942272,0.006982704016440144,0.0
0.29685172256457903,0.006975230692782251,0.0038724863660071955,0.003631466931640229,0.018533734411269223,0.00697466635722654,0.0
0.30179925127398866,0.006969539430978839,0.00385872913005413,0.0036671733590379935,0.01852617329311573,0.006966628698012936,0.0
0.30674677998339833,0.006963848169175427,0.003851390397728662,0.0037028797864357586,0.018518612174962232,0.006958591038799332,0.0
0.31169430869280795,0.006958156907372015,0.003844051665403194,0.003738586213833523,0.01851105105680874,0.006950553379585728,0.0
0.31664183740221763,0.0069524656455686035,0.0038367129330777266,0.003774292641231288,0.018503489938655242,0.006942515720372125,0.0
0.3215893661116273,0.0069467743837651925,0.0038293742007522585,0.0038099990686290526,0.018495928820501748,0.006934478061158521,0.0
0.3265368948210369,0.006941083121961781,0.0038220354684267905,0.0038457054960268173,0.01848836770234825,0.006926440401944917,0.0
0.3314844235304466,0.006935391860158369,0.003814696736101323,0.003881411923424582,0.018480806584194754,0.006918402742731314,0.0
0.3364319522398562,0.006929700598354957,0.003807358003775855,0.003917118350822347,0.01847324546604126,0.00691036508351771,0.0
0.3413794809492659,0.006924009336551545,0.003800019271450387,0.003952824778220111,0.018465684347887763,0.006894771893531508,0.0
0.3463270096586755,0.0069183180747481345,0.0037926805391249193,0.003988531205617876,0.01845812322973427,0.00686499011959444,0.0
0.3512745383680852,0.006912626812944723,0.0037853418067994513,0.004024237633015641,0.018450191580850105,0.006835208345657371,0.0
0.3562220670774948,0.006906935551141311,0.0037780030744739832,0.004059944060413405,0.018442185691040516,0.006805426571720303,0.0
0.3611695957869045,0.006901244289337899,0.0037706643421485156,0.00409565048781117,0.018434179801230927,0.006775644797783234,0.0
0.3661171244963141,0.006895553027534487,0.0037633256098230476,0.004131356915208935,0.01842617391142134,0.006745863023846166,0.0
0.3710646532057238,0.0068898617657310755,0.0037559868774975796,0.0041670633426066995,0.018418168021611753,0.006716081249909097,0.0
0.3760121819151334,0.006884170503927665,0.003748648145172112,0.004202769770004464,0.018410162131802164,0.006686299475972029,0.0
0.3809597106245431,0.006878479242124253,0.003741309412846644,0.004238476197402229,0.018402156241992578,0.00665651770203496,0.0
0.3859072393339527,0.006872787980320841,0.0037339706805211764,0.0042741826247999935,0.01839415035218299,0.006626735928097892,0.0
0.3908547680433624,0.006867096718517429,0.003726631948195721,0.004334825562586797,0.0183861444623734,0.006596954154160823,0.0
0.395802296752772,0.006861405456714017,0.0037192932158702672,0.004469677151772294,0.018378138572563815,0.006567172380223755,0.0
0.4007498254621817,0.006855714194910606,0.003711954483544814,0.004604528740957793,0.018370132682754226,0.006537390606286686,0.0
0.40569735417159136,0.006850022933107195,0.0037046157512193607,0.004739380330143292,0.018362126792944636,0.006507608832349618,0.0
0.410644882881001,0.006844331671303783,0.0036972770188939074,0.004874231919328788,0.01835412090313505,0.006477827058412549,0.0
0.41559241159041066,0.006838640409500371,0.003689938286568454,0.005009083508514287,0.018346115013325462,0.006448045284475481,0.0
0.4205399402998203,0.006832949147696959,0.003682599554243001,0.0051439350976997845,0.018338109123515873,0.006418263510538412,0.0
0.42548746900922996,0.0068272578858935475,0.003675260821917547,0.005278786686885283,0.018330103233706284,0.006388481736601344,0.0
0.4304349977186396,0.006820820723868932,0.003667922089592094,0.00541363827607078,0.0183220973438967,0.006358699962664275,0.0
0.43538252642804925,0.006810861015712964,0.0036605833572666406,0.005548489865256278,0.018314277683196826,0.006328918188727207,0.0
0.4403300551374589,0.006800901307556995,0.0036532446249411873,0.005683341454441776,0.018306938950871376,0.006299136414790138,0.0
0.44527758384686855,0.006790941599401027,0.003645905892615734,0.005818193043627275,0.018299600218545924,0.00626935464085307,0.0
0.4502251125562782,0.006780981891245059,0.0036385671602902807,0.005953044632812771,0.01829226148622047,0.006239572866916001,0.0
0.45517264126568785,0.006771022183089091,0.0036312284279648274,0.00608789622199827,0.018284922753895018,0.006209791092978933,0.0
0.46012016997509747,0.006761062474933122,0.003623889695639374,0.006222747811183767,0.018277584021569565,0.006180009319041864,0.0
0.46506769868450715,0.006751102766777154,0.0036165509633139204,0.006357599400369266,0.018270245289244116,0.006150227545104796,0.0
0.47001522739391677,0.006741143058621186,0.003609212230988467,0.006492450989554763,0.018262906556918663,0.006120445771167727,0.0
0.47496275610332644,0.006731183350465218,0.003601873498663016,0.006627302578740261,0.01825556782459321,0.006090663997230659,0.0
0.4799102848127361,0.006721223642309249,0.0035945347663375697,0.0067621541679257595,0.018248229092267757,0.006068190199810312,0.0
0.48485781352214574,0.006711263934153281,0.003587196034012124,0.006897005757111257,0.018240890359942304,0.006131163512431602,0.0
0.4898053422315554,0.006701304225997312,0.0035798573016866775,0.007031857346296756,0.018233551627616855,0.0061941368250528935,0.0
0.49475287094096504,0.006691344517841344,0.0035725185693612316,0.007166708935482253,0.018226212895291402,0.006257110137674184,0.0
0.4997003996503747,0.0066813848096853755,0.0035651798370357852,0.0072950131778231906,0.01821887416296595,0.006320083450295475,0.0
0.5046479283597843,0.006671425101529407,0.0035578411047103393,0.007267817932605729,0.018211535430640496,0.006383056762916766,0.0
0.509595457069194,0.006661465393373439,0.003550502372384893,0.0072406226873882665,0.018204196698315047,0.006446030075538057,0.0
0.5145429857786037,0.006651505685217471,0.0035431636400594466,0.007213427442170803,0.018196857965989594,0.006509003388159349,0.0
0.5194905144880133,0.0066415459770615025,0.0035358249077340007,0.007186232196953341,0.01818951923366414,0.0065719767007806395,0.0
0.5244380431974229,0.006631586268905534,0.0035284861754085544,0.007159036951735878,0.018188184262832585,0.00663495001340193,0.0
0.5293855719068326,0.006621626560749566,0.0035211474430831085,0.007131841706518416,0.01818912434837841,0.006697923326023221,0.0
0.5343331006162423,0.006611666852593598,0.003513808710757662,0.007104646461300953,0.018190064433924236,0.006760896638644513,0.0
0.5392806293256519,0.0066017071444376295,0.0035064699784322162,0.007077451216083491,0.01819100451947006,0.006823869951265804,0.0
0.5442281580350615,0.006591747436281661,0.00349913124610677,0.007050255970866028,0.018191944605015886,0.006886843263887095,0.0
0.5491756867444711,0.006581787728125693,0.003491792513781324,0.007023060725648566,0.01819288469056171,0.0069498165765083855,0.0
0.5541232154538809,0.0065921434948516084,0.0034844537814558776,0.0069958654804311024,0.01819382477610754,0.007012789889129677,0.0
0.5590707441632905,0.006603694289511752,0.0034771150491304313,0.00696867023521364,0.018194764861653365,0.007075763201750968,0.0
0.5640182728727001,0.006615245084171896,0.0034697763168049854,0.0069414749899961775,0.01819570494719919,0.007138736514372258,0.0
0.5689658015821099,0.00662679587883204,0.003462437584479539,0.006914279744778715,0.018196645032745016,0.007201709826993551,0.0
0.5739133302915195,0.006638346673492183,0.003455098852154093,0.0068870844995612525,0.01819758511829084,0.0072646831396148415,0.0
0.5788608590009291,0.006649897468152327,0.003447760119828647,0.00685988925434379,0.018198525203836666,0.007327656452236132,0.0
0.5838083877103387,0.00666144826281247,0.003440421387503201,0.0068326940091263276,0.018199465289382495,0.007390629764857423,0.0
0.5887559164197484,0.006672999057472614,0.0034330826551777546,0.006805498763908864,0.01820040537492832,0.007453603077478715,0.0
0.5937034451291581,0.006684549852132758,0.0034257439228523082,0.006778303518691402,0.018201345460474146,0.007516576390100005,0.0
0.5986509738385677,0.006696100646792901,0.0034184051905268623,0.006751108273473939,0.01820228554601997,0.007579549702721296,0.0
0.6035985025479773,0.006707651441453045,0.003411066458201416,0.006723913028256477,0.018203225631565796,0.007642523015342587,0.0
0.608546031257387,0.006719202236113189,0.00340372772587597,0.006696717783039014,0.018201330174783373,0.007705496327963879,0.0
0.6134935599667967,0.006730753030773333,0.0033963889935505237,0.006669522537821552,0.01818571262458664,0.00776846964058517,0.0
0.6184410886762063,0.006742303825433477,0.003389050261225078,0.006642327292604089,0.018170095074389905,0.007831442953206461,0.0
0.6233886173856159,0.00675385462009362,0.0033817115288996315,0.006615132047386627,0.018154477524193174,0.00789441626582775,0.0
0.6283361460950256,0.006765405414753764,0.003374372796574185,0.0065879368021691635,0.01813885997399644,0.007957389578449043,0.0
0.6332836748044353,0.006776956209413908,0.0033670340642487392,0.006560741556951702,0.018123242423799705,0.008020362891070333,0.0
0.6382312035138449,0.006788507004074051,0.003359695331923293,0.006533546311734239,0.01810762487360297,0.008083336203691624,0.0
0.6431787322232546,0.006800057798734195,0.003352356599597847,0.006506351066516776,0.018092007323406236,0.008146309516312917,0.0
0.6481262609326642,0.006811608593394339,0.0033450178672723993,0.006479155821299314,0.018076389773209505,0.008209282828934208,0.0
0.6530737896420739,0.006823159388054482,0.003337679134946946,0.006465522458111083,0.01806077222301277,0.008272256141555499,0.0
0.6580213183514835,0.006834710182714626,0.0033303404026214928,0.0064563490427042795,0.018045154672816036,0.00833522945417679,0.0
0.6629688470608932,0.00684626097737477,0.003323001670296039,0.006447175627297475,0.018029537122619302,0.008428294044698501,0.0
0.6679163757703028,0.0068578117720349135,0.003315662937970586,0.006438002211890671,0.018013919572422567,0.008532300918093092,0.0
0.6728639044797124,0.006869362566695058,0.0033083242056451325,0.006428828796483866,0.017998302022225833,0.008636307791487684,0.0
0.6778114331891221,0.006880913361355201,0.0033009854733196792,0.006419655381077062,0.017982684472029102,0.008740314664882273,0.0
0.6827589618985318,0.006892464156015345,0.0032936467409942255,0.006410481965670257,0.017967066921832368,0.008844321538276866,0.0
0.6877064906079414,0.006904014950675489,0.0032863080086687722,0.006401308550263453,0.017951449371635633,0.008948328411671458,0.0
0.692654019317351,0.006915565745335632,0.003278969276343319,0.0063921351348566495,0.0179358318214389,0.009052335285066049,0.0
0.6976015480267607,0.006927116539995776,0.0032716305440178657,0.006382961719449845,0.01791356238086341,0.00915634215846064,0.0
0.7025490767361704,0.00693866733465592,0.003264291811692412,0.006373788304043041,0.017887169226453274,0.009260349031855233,0.0
0.70749660544558,0.006950218129316063,0.0032569530793669587,0.006364614888636236,0.017860776072043137,0.009364355905249824,0.0
0.7124441341549896,0.006961768923976207,0.0032496143470415054,0.006355441473229432,0.017834382917633,0.009468362778644414,0.0
0.7173916628643994,0.006973319718636351,0.0032422756147160517,0.006346268057822627,0.017807989763222863,0.009572369652039009,0.0
0.722339191573809,0.006934560358034518,0.0032349368823905984,0.006337094642415823,0.017781596608812726,0.009676376525433598,0.0
0.7272867202832186,0.006864727078006171,0.003227598150065145,0.006327921227009019,0.01775520345440259,0.00978038339882819,0.0
0.7322342489926282,0.006794893797977825,0.003220259417739692,0.006318747811602215,0.017728810299992452,0.00988439027222278,0.0
0.737181777702038,0.006725060517949476,0.003202162135332486,0.00630957439619541,0.017702417145582315,0.009988397145617374,0.0
0.7421293064114476,0.0066552272379211295,0.003177966954358823,0.006300400980788606,0.017676023991172178,0.010092404019011965,0.0
0.7470768351208572,0.0065853939578927835,0.0031537717733851594,0.006291227565381802,0.01764963083676204,0.010196410892406556,0.0
0.7520243638302668,0.0065155606778644366,0.003129576592411496,0.006282054149974997,0.017623237682351904,0.010300417765801147,0.0
0.7569718925396766,0.006445727397836089,0.0031053814114378325,0.006272880734568193,0.017596844527941767,0.01040442463919574,0.0
0.7619194212490862,0.006375894117807742,0.003081186230464169,0.006263707319161389,0.01757045137353163,0.01050843151259033,0.0
0.7668669499584958,0.006306060837779395,0.0030569910494905057,0.006254533903754585,0.017544058219121493,0.010612438385984921,0.0
0.7718144786679054,0.006236227557751049,0.0030327958685168427,0.006247052884989603,0.017517665064711356,0.010716445259379512,0.0
0.7767620073773152,0.0061663942777227,0.003008600687543179,0.006241120229109692,0.01749127191030122,0.010820452132774105,0.0
0.7817095360867248,0.006096560997694353,0.0029844055065695154,0.006235187573229783,0.01746529511174494,0.010924459006168697,0.0
