r (A),g(r)_weighted_Ca-Ca,g(r)_weighted_Ca-Cl,g(r)_weighted_Mg-Cl,g(r)_weighted_Mg-Mg,g(r)_weighted_Na-Cl,g(r)_weighted_Na-Na,S_i_Ca-Cl,S_i_Mg-Cl,S_i_Na-Cl,Average_SCL,SCL_BC
0.0,0.0,0.0,0.0,0.0,0.0,0.0,1.0,1.0,1.0,2.5640104274946216,3.52027
0.0074437715007503,0.0,0.000215656688591985,0.0,0.0,0.0,0.0,1.0,1.0,1.0,2.5640104274946216,3.52027
0.0148875430015007,0.0,0.00043131337718397,0.0,0.0,0.0,0.0,1.0,1.0,1.0,2.5640104274946216,3.52027
0.0223313145022511,0.0,0.0006469700657759549,0.0,0.0,0.0,0.0,1.0,1.0,1.0,2.5640104274946216,3.52027
0.0297750860030015,0.0,0.00086262675436794,0.0,0.0,0.0,0.0,1.0,1.0,1.0,2.5640104274946216,3.52027
0.0372188575037518,0.0,0.0010782834429599248,0.001850389463333632,0.0,0.0,0.0,1.0,1.0,1.0,2.5640104274946216,3.52027
0.0446626290045022,0.0,0.0012939401315519097,0.002034772791436816,0.0,0.0,0.0,1.0,1.0,1.0,2.5640104274946216,3.52027
0.0521064005052526,0.0,0.0015095968201438948,0.0022191561195399998,0.0,0.0,0.0,1.0,1.0,1.0,2.5640104274946216,3.52027
0.059550172006003,0.0,0.00172525350873588,0.0024035394476431726,0.0,0.0,0.0,1.0,1.0,1.0,2.5640104274946216,3.52027
0.0669939435067533,0.0,0.0019409101973278649,0.002587922775746357,0.0,0.0,0.0,1.0,1.0,1.0,2.5640104274946216,3.52027
0.0744377150075037,0.0,0.0021565668859198496,0.002772306103849541,0.0,0.0,0.0,1.0,1.0,1.0,2.5640104274946216,3.52027
0.0818814865082541,1.6008979478136642e-05,0.0023722235745118345,0.002956689431952714,0.0,0.0,0.0,1.0,1.0,1.0,2.5640104274946216,3.52027
0.0893252580090045,3.712527691028642e-05,0.0025878802631038194,0.0031410727600558975,0.0007036644449895967,0.0,0.0,1.0,1.0,1.0,2.5640104274946216,3.52027
0.0967690295097548,5.82415743424362e-05,0.0028035369516958095,0.003325456088159071,0.0006994020269641802,0.0,0.002233564562509751,1.0,1.0,1.0,2.5640104274946216,3.52027
0.1042128010105052,7.935787177458546e-05,0.0030191936402877944,0.003509839416262255,0.0006951396089387661,0.005450949648766359,0.002206614905314457,1.0,1.0,1.0,2.5640104274946216,3.52027
0.1116565725112556,0.00010047416920673523,0.0032348503288797794,0.0036942227443654383,0.0006908771909133496,0.005411647046202871,0.0021796652481191566,1.0,1.0,1.0,2.5640104274946216,3.52027
0.119100344012006,0.00012159046663888502,0.0034505070174717647,0.003878606072468622,0.0006866147728879354,0.005372344443639383,0.002152715590923856,1.0,1.0,1.0,2.5640104274946216,3.52027
0.1265441155127563,0.0001427067640710343,0.003666163706063749,0.004062989400571796,0.000682352354862519,0.005333041841075914,0.002125765933728556,1.0,1.0,1.0,2.5640104274946216,3.52027
0.1339878870135067,0.00016382306150318404,0.0037235857702240483,0.004247372728674979,0.0006780899368371048,0.0052937392385124255,0.0020988162765332623,1.0,1.0,1.0,2.5640104274946216,3.52027
0.1414316585142571,0.00018493935893533383,0.0037184141575451993,0.004394192203352944,0.0006738275188116884,0.005254436635948937,0.0020718666193379615,1.0,1.0,1.0,2.5640104274946216,3.52027
0.1488754300150075,0.0002060556563674831,0.0037132425448663494,0.0045192956685506614,0.0006695651007862742,0.005215134033385468,0.002044916962142661,1.0,1.0,1.0,2.5640104274946216,3.52027
0.1563192015157578,0.00021581943853869414,0.0037080709321875055,0.004644399133748369,0.0006653026827608578,0.00517583143082198,0.0020179673049473606,1.0,1.0,1.0,2.5640104274946216,3.52027
0.1637629730165082,0.0002149461439877763,0.0037028993195086513,0.0047695025989460856,0.0006610402647354413,0.005136528828258492,0.001991017647752067,1.0,1.0,1.0,2.5640104274946216,3.52027
0.1712067445172586,0.00021407284943685895,0.003697727706829802,0.004894606064143804,0.0006567778467100272,0.005097226225695003,0.0019640679905567663,1.0,1.0,1.0,2.5640104274946216,3.52027
0.178650516018009,0.0002131995548859411,0.0036925560941509523,0.0050197095293415105,0.0006525154286846107,0.005057923623131533,0.0019371183333614663,1.0,1.0,1.0,2.5640104274946216,3.52027
0.1860942875187594,0.00021232626033502376,0.0036873844814721032,0.005144812994539228,0.0006483261982817119,0.0050186210205680456,0.0019101686761661657,1.0,1.0,1.0,2.5640104274946216,3.52027
0.1935380590195097,0.0002114529657841059,0.003682212868793254,0.005269916459736946,0.0006458071673544374,0.004979318418004558,0.001883219018970872,1.0,1.0,1.0,2.5640104274946216,3.52027
0.2009818305202601,0.00021057967123318805,0.0036770412561144047,0.005395019924934653,0.0006432881364271629,0.004940015815441088,0.0018562693617755718,1.0,1.0,1.0,2.5640104274946216,3.52027
0.2084256020210105,0.0002097063766822707,0.003671869643435555,0.00552012339013237,0.0006407691054998861,0.004910764955006056,0.0018293197045802711,1.0,1.0,1.0,2.5640104274946216,3.52027
0.2158693735217609,0.00020883308213135286,0.0036666980307567057,0.005645226855330089,0.0006382500745726116,0.004886234723379961,0.0018023700473849707,1.0,1.0,1.0,2.5640104274946216,3.52027
0.2233131450225112,0.00020795978758043549,0.0036615264180778566,0.005770330320527795,0.0006357310436453371,0.004861704491753884,0.001775420390189677,1.0,1.0,1.0,2.5640104274946216,3.52027
0.2307569165232616,0.00020708649302951767,0.0036563548053990076,0.005895433785725513,0.0006332120127180603,0.004837174260127807,0.0017484707329943768,1.0,1.0,1.0,2.5640104274946216,3.52027
0.238200688024012,0.0002062131984786003,0.0036514517132515954,0.00602053725092323,0.0006306929817907858,0.004812644028501712,0.0017215210757990762,1.0,1.0,1.0,2.5640104274946216,3.52027
0.2456444595247623,0.00020533990392768243,0.003646879509042313,0.006087797467858915,0.0006281739508635113,0.004788113796875635,0.0016945714186037757,1.0,1.0,1.0,2.5640104274946216,3.52027
0.2530882310255127,0.0002044666093767646,0.0036423073048330347,0.006051040096623758,0.0006256549199362345,0.00476358356524954,0.00167064624674803,1.0,1.0,1.0,2.5640104274946216,3.52027
0.2605320025262631,0.00020356799730087175,0.003637735100623751,0.006014282725388601,0.00062313588900896,0.004739053333623463,0.001647207466815279,1.0,1.0,1.0,2.5640104274946216,3.52027
0.2679757740270135,0.0002025891963118621,0.0036331628964144736,0.0059775253541534444,0.0006206168580816855,0.004714523101997368,0.0016237686868825283,1.0,1.0,1.0,2.5640104274946216,3.52027
0.2754195455277639,0.00020161039532285243,0.00362859069220519,0.005940767982918289,0.0006180978271544087,0.004689992870371291,0.0016003299069497774,1.0,1.0,1.0,2.5640104274946216,3.52027
0.2828633170285142,0.00020063159433384223,0.003624018487995907,0.0059040106116831316,0.0006155787962271342,0.004665462638745196,0.0015768911270170331,1.0,1.0,1.0,2.5640104274946216,3.52027
0.2903070885292646,0.00019965279334483257,0.0036194462837866293,0.005867253240447975,0.0006130597652998597,0.004640932407119119,0.0015534523470842822,1.0,1.0,1.0,2.5640104274946216,3.52027
0.297750860030015,0.0001986739923558224,0.0036148740795773457,0.005830495869212808,0.0006112365244111864,0.004616402175493024,0.0015300135671515315,1.0,1.0,1.0,2.5640104274946216,3.52027
0.3051946315307653,0.00019769519136681273,0.003610301875368068,0.005793738497977652,0.0006096169000617603,0.004591871943866947,0.0015065747872187807,1.0,1.0,1.0,2.5640104274946216,3.52027
0.3126384030315157,0.00019671639037780256,0.0036057296711587846,0.005756981126742495,0.0006079972757123342,0.004572619923246699,0.0014831360072860363,1.0,1.0,1.0,2.5640104274946216,3.52027
0.3200821745322661,0.0001957375893887929,0.003601157466949506,0.005720223755507339,0.0006063776513629082,0.004561023147755828,0.0014596972273532855,1.0,1.0,1.0,2.5640104274946216,3.52027
0.3275259460330165,0.0001947587883997827,0.003596585262740223,0.0056834663842721825,0.0006047580270134845,0.004549426372264941,0.0014362584474205348,1.0,1.0,1.0,2.5640104274946216,3.52027
0.3349697175337668,0.00019377998741077303,0.0035920130585309455,0.005646709013037026,0.0006031384026640584,0.004537829596774051,0.0014128196674877838,1.0,1.0,1.0,2.5640104274946216,3.52027
0.3424134890345172,0.00019280118642176337,0.0035880923100039216,0.00560995164180187,0.0006015187783146324,0.004526232821283163,0.0013893808875550396,1.0,1.0,1.0,2.5640104274946216,3.52027
0.3498572605352676,0.0001918223854327532,0.0035871479407782337,0.005575824294415185,0.0005998991539652063,0.004514636045792275,0.0013659421076222887,1.0,1.0,1.0,2.5640104274946216,3.52027
0.357301032036018,0.00019084358444374354,0.003586203571552551,0.0055715129963816125,0.0005982795296157826,0.004503039270301386,0.001342503327689538,1.0,1.0,1.0,2.5640104274946216,3.52027
0.3647448035367684,0.00018986478345473334,0.003585259202326864,0.005567201698348051,0.0005966599052663565,0.004491442494810498,0.001319064547756787,1.0,1.0,1.0,2.5640104274946216,3.52027
0.3721885750375188,0.0001897787233484889,0.003584314833101176,0.005562890400314478,0.0005950402809169305,0.004479845719319627,0.0012956257678240427,1.0,1.0,1.0,2.5640104274946216,3.52027
0.3796323465382691,0.00018972633244545932,0.003583370463875488,0.005558579102280905,0.0005934206565675045,0.004468248943828739,0.0012721869878912922,1.0,1.0,1.0,2.5640104274946216,3.52027
0.3870761180390195,0.0001896739415424292,0.0035824260946498055,0.005554267804247333,0.0005918010322180807,0.004456652168337851,0.0012487482079585413,1.0,1.0,1.0,2.5640104274946216,3.52027
0.3945198895397699,0.00018962155063939962,0.0035814817254241176,0.00554995650621376,0.0005901814078686546,0.004445055392846962,0.0012253094280257903,1.0,1.0,1.0,2.5640104274946216,3.52027
0.4019636610405203,0.00018956915973636956,0.00358053735619843,0.005545645208180187,0.0005872037636116362,0.004433458617356074,0.0012041251917867858,1.0,1.0,1.0,2.5640104274946216,3.52027
0.4094074325412706,0.00018951676883333993,0.003579592986972747,0.005541333910146614,0.0005828962689972084,0.004421861841865185,0.0011907191888701398,1.0,1.0,1.0,2.5640104274946216,3.52027
0.416851204042021,0.00018946437793030985,0.00357864861774706,0.005537022612113042,0.0005785887743827807,0.0044072301719646,0.001177313185953494,1.0,1.0,1.0,2.5640104274946216,3.52027
0.4242949755427714,0.00018941198702728028,0.0035777042485213724,0.005532711314079469,0.000574281279768353,0.004373279931873439,0.0011639071830368483,1.0,1.0,1.0,2.5640104274946216,3.52027
0.4317387470435218,0.00018935959612425068,0.0035767598792956845,0.0055284000160458965,0.0005699737851539253,0.004339329691782297,0.0011505011801202088,1.0,1.0,1.0,2.5640104274946216,3.52027
0.4391825185442721,0.0001893072052212206,0.003575815510070002,0.005524088718012324,0.0005656662905394976,0.004305379451691136,0.001137095177203563,1.0,1.0,1.0,2.5640104274946216,3.52027
0.4466262900450225,0.000189254814318191,0.003574871140844314,0.005519777419978751,0.0005613587959250699,0.004271429211599993,0.0011236891742869173,1.0,1.0,1.0,2.5640104274946216,3.52027
0.4540700615457729,0.0001892024234151609,0.0035732913035599026,0.005515466121945177,0.000557051301310642,0.004237478971508849,0.0011102831713702716,1.0,1.0,1.0,2.5640104274946216,3.52027
0.4615138330465232,0.00018915003251213132,0.0035716495123370023,0.005511154824805435,0.0005527438066962143,0.004203528731417688,0.0010968771684536321,1.0,1.0,1.0,2.5640104274946216,3.52027
0.4689576045472736,0.0001890976416091012,0.0035700077211141016,0.00550684352788256,0.0005484363120817866,0.004169578491326546,0.0010834711655369864,1.0,1.0,1.0,2.5640104274946216,3.52027
0.476401376048024,0.00018814211978804884,0.0035683659298912053,0.0055025322309596725,0.000544128817467359,0.004135628251235385,0.0010700651626203406,1.0,1.0,1.0,2.5640104274946216,3.52027
0.4838451475487744,0.0001867757981893209,0.0035667241386683046,0.0054982209340367965,0.0005398213228529312,0.004101678011144242,0.0010566591597036947,1.0,1.0,1.0,2.5640104274946216,3.52027
0.4912889190495247,0.00018540947659059299,0.003565082347445404,0.005493909637113909,0.0005355138282385058,0.004067727771053099,0.0010432531567870487,1.0,1.0,1.0,2.5640104274946216,3.52027
0.4987326905502751,0.00018404315499186504,0.0035634405562225027,0.005489598340191034,0.0005312063336240781,0.004033777530961937,0.0010298471538704094,1.0,1.0,1.0,2.5640104274946216,3.52027
0.5061764620510255,0.00018267683339313713,0.003561798764999607,0.005485287043268148,0.0005270376421917442,0.0039998272908707945,0.0010164411509537637,1.0,1.0,1.0,2.5640104274946216,3.52027
0.5136202335517759,0.0001813105117944092,0.0035601569737767065,0.005480975746345272,0.0005233161361431406,0.003965877050779634,0.001003035148037118,1.0,1.0,1.0,2.5640104274946216,3.52027
0.5210640050525263,0.00017994419019568128,0.0035585151825538058,0.005476664449422386,0.0005195946300945392,0.003931926810688491,0.000989629145120472,1.0,1.0,1.0,2.5640104274946216,3.52027
0.5285077765532766,0.00017857786859695336,0.0035568733913309094,0.00547235315249951,0.0005158731240459379,0.0039019643166459095,0.0009762231422038261,1.0,1.0,1.0,2.5640104274946216,3.52027
0.535951548054027,0.00017721154699822542,0.003555231600108009,0.005468041855576623,0.0005121516179973343,0.0038726325610044777,0.0009628171392871869,1.0,1.0,1.0,2.5640104274946216,3.52027
0.5433953195547774,0.00017584522539949748,0.0035535898088851084,0.005463730558653747,0.000508430111948733,0.003843300805363028,0.0009494111363705411,1.0,1.0,1.0,2.5640104274946216,3.52027
0.5508390910555278,0.00017447890380076957,0.0035519480176622073,0.005459419261730871,0.0005047086059001316,0.003813969049721578,0.0009360051334538952,1.0,1.0,1.0,2.5640104274946216,3.52027
0.5582828625562781,0.00017311258220204214,0.003550156800859886,0.005455107964807985,0.0005009870998515279,0.0037846372940801283,0.0009360703123568798,1.0,1.0,1.0,2.5640104274946216,3.52027
0.5657266340570285,0.00017174626060331423,0.003548282535736925,0.005443300848465514,0.0004972655938029266,0.0037553055384386973,0.0009455754880822154,1.0,1.0,1.0,2.5640104274946216,3.52027
0.5731704055577789,0.00017037993900458632,0.0035464082706139592,0.0054248049300392445,0.0004935440877543252,0.0037259737827972468,0.000955080663807551,1.0,1.0,1.0,2.5640104274946216,3.52027
0.5806141770585292,0.0001691956460979315,0.0035445340054909985,0.005406309011612964,0.0004898225817057216,0.0036966420271557976,0.0009645858395328866,1.0,1.0,1.0,2.5640104274946216,3.52027
0.5880579485592796,0.0001682721683519346,0.003542659740368038,0.0053878130931866944,0.0004861010756571203,0.003667310271514348,0.0009740910152582222,1.0,1.0,1.0,2.5640104274946216,3.52027
0.59550172006003,0.00016734869060593764,0.003540785475245077,0.005369317174760414,0.000482379569608519,0.003637978515872916,0.0009835961909835577,1.0,1.0,1.0,2.5640104274946216,3.52027
0.6029454915607804,0.00016642521285994123,0.003538911210122116,0.005350821256334144,0.0004786580635599153,0.0036086467602314664,0.0009931013667088934,1.0,1.0,1.0,2.5640104274946216,3.52027
0.6103892630615307,0.00016550173511394427,0.0035370369449991552,0.005332325337907864,0.00047493655751131394,0.0035793150045900167,0.001002606542434229,1.0,1.0,1.0,2.5640104274946216,3.52027
0.6178330345622811,0.00016457825736794732,0.0035351626798761945,0.005313829419481583,0.0004725336637731261,0.0035499832489485667,0.0010121117181595646,1.0,1.0,1.0,2.5640104274946216,3.52027
0.6252768060630315,0.00016365477962195041,0.0035332884147532286,0.005295333501055313,0.0004701736571075112,0.0035206514933071352,0.0010216168938849,1.0,1.0,1.0,2.5640104274946216,3.52027
0.6327205775637819,0.00016273130187595397,0.003531414149630268,0.005276837582629033,0.000467813650441894,0.003506766334418419,0.0010311220696102357,1.0,1.0,1.0,2.5640104274946216,3.52027
0.6401643490645322,0.00016180782412995704,0.003529539884507307,0.005258341664202763,0.00046545364377627676,0.0035035667549731574,0.0010406272453355712,1.0,1.0,1.0,2.5640104274946216,3.52027
0.6476081205652826,0.0001608843463839601,0.0035276656193843465,0.005239845745776483,0.0004630936371106619,0.003500367175527878,0.001050132421060907,1.0,1.0,1.0,2.5640104274946216,3.52027
0.655051892066033,0.00015996086863796368,0.0035257913542613853,0.005221349827350214,0.00046073363044504465,0.003497167596082617,0.0010596375967862424,1.0,1.0,1.0,2.5640104274946216,3.52027
0.6624956635667834,0.00015903739089196675,0.0035227911692392176,0.005202853908923933,0.00045837362377942973,0.0034939680166373383,0.001069142772511578,1.0,1.0,1.0,2.5640104274946216,3.52027
0.6699394350675337,0.0001581139131459698,0.0035179093054424414,0.0052031636719032945,0.00045601361711381254,0.003490768437192077,0.0010786479482369135,1.0,1.0,1.0,2.5640104274946216,3.52027
0.6773832065682841,0.00015719043539997283,0.00351302744164567,0.005259251659264677,0.00045365361044819534,0.0034875688577467976,0.0010881531239622492,1.0,1.0,1.0,2.5640104274946216,3.52027
0.6848269780690345,0.00015634071102866011,0.0035081455778488988,0.00531533964662606,0.00045129360378258043,0.003484369278301537,0.0010976582996875847,1.0,1.0,1.0,2.5640104274946216,3.52027
0.6922707495697848,0.00015596461243947264,0.0035032637140521273,0.005371427633987442,0.0004489335971169632,0.003481169698856276,0.0011071634754129204,1.0,1.0,1.0,2.5640104274946216,3.52027
0.6997145210705352,0.00015558851385028517,0.003498381850255356,0.005427515621348825,0.000446573590451346,0.003477970119410996,0.0011166686511382559,1.0,1.0,1.0,2.5640104274946216,3.52027
0.7071582925712856,0.0001552124152610977,0.00349349998645858,0.005483603608710207,0.00044421358378573107,0.003474770539965735,0.0011261738268635915,1.0,1.0,1.0,2.5640104274946216,3.52027
0.7146020640720361,0.00015483631667191026,0.003488618122661808,0.0055396915960716,0.0004418535771201139,0.0034715709605204564,0.0011274276218053059,1.0,1.0,1.0,2.5640104274946216,3.52027
0.7220458355727865,0.0001544602180827228,0.0034837362588650365,0.005595779583432983,0.00044632746589591505,0.0034683713810751953,0.0011282583699325581,1.0,1.0,1.0,2.5640104274946216,3.52027
0.7294896070735368,0.00015408411949353583,0.0034788543950682654,0.005651867570794365,0.0004537283527079044,0.003465171801629916,0.0011290891180598106,1.0,1.0,1.0,2.5640104274946216,3.52027
0.7369333785742872,0.00015370802090434836,0.003473972531271494,0.005707955558155748,0.0004611292395198915,0.003461009439476816,0.0011299198661870631,1.0,1.0,1.0,2.5640104274946216,3.52027
0.7443771500750376,0.00015333192231516092,0.003469090667474723,0.0057640435455171305,0.00046853012633187854,0.003454789443433923,0.0011307506143143156,1.0,1.0,1.0,2.5640104274946216,3.52027
0.751820921575788,0.00015295582372597345,0.0034642088036779465,0.005820131532878513,0.00047593101314386563,0.0034485694473910295,0.001131581362441568,1.0,1.0,1.0,2.5640104274946216,3.52027
0.7592646930765383,0.00015257972513678598,0.003459326939881175,0.005876219520239896,0.00048333189995585277,0.0034423494513481363,0.0011324121105688203,1.0,1.0,1.0,2.5640104274946216,3.52027
0.7667084645772887,0.0001522036265475985,0.0034566967372107247,0.005932307507601278,0.0004907327867678421,0.0034361294553052614,0.0011332428586960728,1.0,1.0,1.0,2.5640104274946216,3.52027
0.7741522360780391,0.00015182752795841106,0.0034730661760730393,0.005988395494962661,0.0004981336735798292,0.0034299094592623674,0.0011340736068233253,1.0,1.0,1.0,2.5640104274946216,3.52027
0.7815960075787894,0.0001514514293692236,0.003489435614935354,0.006044620809094498,0.0005055345603918163,0.0034236894632194742,0.0011349043549505845,1.0,1.0,1.0,2.5640104274946216,3.52027
0.7890397790795398,0.00015107533078003612,0.0035058050537976684,0.006100849523831226,0.0005129354472038033,0.003417469467176581,0.001135735103077837,1.0,1.0,1.0,2.5640104274946216,3.52027
0.7964835505802902,0.0001508907643398272,0.003522174492659978,0.006157078238567943,0.0005203363340157927,0.003411249471133688,0.0011365658512050895,1.0,1.0,1.0,2.5640104274946216,3.52027
0.8039273220810406,0.00015073778397265813,0.0035385439315222924,0.00621330695330466,0.0005277372208277798,0.003405029475090794,0.0011373965993323417,1.0,1.0,1.0,2.5640104274946216,3.52027
0.8113710935817909,0.00015058480360548852,0.003554913370384607,0.006269535668041388,0.0005351381076397669,0.0033988094790479008,0.0011382273474595942,1.0,1.0,1.0,2.5640104274946216,3.52027
