r (A),g(r)_weighted_Ca-Ca,g(r)_weighted_Ca-Cl,g(r)_weighted_Mg-Cl,g(r)_weighted_Mg-Mg,g(r)_weighted_Na-Cl,g(r)_weighted_Na-Na,S_i_Ca-Cl,S_i_Mg-Cl,S_i_Na-Cl,Average_SCL,lambda_BC
0.0,0.0,0.0,0.0,0.0,0.0,0.0,1.0,1.0,1.0,2.9351428506142754,3.52027
0.0074437715007503,0.0,0.000215656688591985,0.0,0.0,0.0,0.0,1.0,1.0,1.0,2.9351428506142754,3.52027
0.0148875430015007,0.0,0.00043131337718397,0.0,0.0,0.0,0.0,1.0,1.0,1.0,2.9351428506142754,3.52027
0.0223313145022511,0.0,0.0006469700657759549,0.0,0.0,0.0,0.0,1.0,1.0,1.0,2.9351428506142754,3.52027
0.0297750860030015,0.0,0.00086262675436794,0.0,0.0,0.0,0.0,1.0,1.0,1.0,2.9351428506142754,3.52027
0.0372188575037518,0.0,0.0010782834429599248,0.001850389463333632,0.0,0.0,0.0,1.0,1.0,1.0,2.9351428506142754,3.52027
0.0446626290045022,0.0,0.0012939401315519097,0.002034772791436816,0.0,0.0,0.0,1.0,1.0,1.0,2.9351428506142754,3.52027
0.0521064005052526,0.0,0.0015095968201438948,0.0022191561195399998,0.0,0.0,0.0,1.0,1.0,1.0,2.9351428506142754,3.52027
0.059550172006003,0.0,0.00172525350873588,0.0024035394476431726,0.0,0.0,0.0,1.0,1.0,1.0,2.9351428506142754,3.52027
0.0669939435067533,0.0,0.0019409101973278649,0.002587922775746357,0.0,0.0,0.0,1.0,1.0,1.0,2.9351428506142754,3.52027
0.0744377150075037,0.0,0.0021565668859198496,0.002772306103849541,0.0,0.0,0.0,1.0,1.0,1.0,2.9351428506142754,3.52027
0.0818814865082541,1.567045978801167e-05,0.0023722235745118345,0.002956689431952714,0.0,0.0,0.0,1.0,1.0,1.0,2.9351428506142754,3.52027
0.0893252580090045,3.634024015934074e-05,0.0025878802631038194,0.0031410727600558975,0.0007036644449895966,0.0,0.0,1.0,1.0,1.0,2.9351428506142754,3.52027
0.0967690295097548,5.7010020530669285e-05,0.0028035369516958095,0.003325456088159071,0.0006994020269641801,0.0,0.0021711840909416085,1.0,1.0,1.0,2.9351428506142754,3.52027
0.1042128010105052,7.767980090199835e-05,0.0030191936402877944,0.003509839416262255,0.000695139608938766,0.005450949648766359,0.0021504313888422834,1.0,1.0,1.0,2.9351428506142754,3.52027
0.1116565725112556,9.83495812733269e-05,0.0032348503288797794,0.0036942227443654383,0.0006908771909133495,0.005411647046202871,0.002129678686742958,1.0,1.0,1.0,2.9351428506142754,3.52027
0.119100344012006,0.00011901936164465597,0.0034505070174717647,0.003878606072468622,0.0006866147728879353,0.005372344443639383,0.0021089259846436385,1.0,1.0,1.0,2.9351428506142754,3.52027
0.1265441155127563,0.00013968914201598504,0.003666163706063749,0.004062989400571796,0.0006823523548625189,0.005333041841075914,0.002088173282544313,1.0,1.0,1.0,2.9351428506142754,3.52027
0.1339878870135067,0.0001603589223873136,0.0037235857702240483,0.004247372728674979,0.0006780899368371047,0.0052937392385124255,0.0020674205804449876,1.0,1.0,1.0,2.9351428506142754,3.52027
0.1414316585142571,0.00018102870275864264,0.0037184141575451993,0.004394192203352944,0.0006738275188116883,0.005254436635948937,0.002046667878345662,1.0,1.0,1.0,2.9351428506142754,3.52027
0.1488754300150075,0.00020169848312997122,0.0037132425448663494,0.0045192956685506614,0.0006695651007862741,0.005215134033385468,0.0020259151762463366,1.0,1.0,1.0,2.9351428506142754,3.52027
0.1563192015157578,0.00021167352513918144,0.0037080709321875055,0.004644399133748369,0.0006653026827608577,0.00517583143082198,0.002005162474147011,1.0,1.0,1.0,2.9351428506142754,3.52027
0.1637629730165082,0.00021162781404952818,0.0037028993195086513,0.0047695025989460856,0.0006610402647354411,0.005136528828258492,0.001984409772047692,1.0,1.0,1.0,2.9351428506142754,3.52027
0.1712067445172586,0.00021158210295987542,0.003697727706829802,0.004894606064143804,0.0006567778467100271,0.005097226225695003,0.0019636570699483667,1.0,1.0,1.0,2.9351428506142754,3.52027
0.178650516018009,0.0002115363918702222,0.0036925560941509523,0.0050197095293415105,0.0006525154286846106,0.005057923623131533,0.0019429043678490412,1.0,1.0,1.0,2.9351428506142754,3.52027
0.1860942875187594,0.0002114906807805689,0.0036873844814721032,0.005144812994539228,0.0006483261982817118,0.0050186210205680456,0.001922151665749716,1.0,1.0,1.0,2.9351428506142754,3.52027
0.1935380590195097,0.00021144496969091568,0.003682212868793254,0.005269916459736946,0.0006458071673544373,0.004979318418004558,0.0019013989636503903,1.0,1.0,1.0,2.9351428506142754,3.52027
0.2009818305202601,0.0002113992586012624,0.0036770412561144047,0.005395019924934653,0.0006432881364271628,0.004940015815441088,0.0018806462615510715,1.0,1.0,1.0,2.9351428506142754,3.52027
0.2084256020210105,0.00021135354751160914,0.003671869643435555,0.00552012339013237,0.000640769105499886,0.004910764955006056,0.001859893559451746,1.0,1.0,1.0,2.9351428506142754,3.52027
0.2158693735217609,0.00021130783642195585,0.0036666980307567057,0.005645226855330089,0.0006382500745726115,0.004886234723379961,0.0018391408573524204,1.0,1.0,1.0,2.9351428506142754,3.52027
0.2233131450225112,0.00021126212533230263,0.0036615264180778566,0.005770330320527795,0.000635731043645337,0.004861704491753884,0.0018183881552530949,1.0,1.0,1.0,2.9351428506142754,3.52027
0.2307569165232616,0.00021121641424264934,0.0036563548053990076,0.005895433785725513,0.0006332120127180602,0.004837174260127807,0.0017976354531537694,1.0,1.0,1.0,2.9351428506142754,3.52027
0.238200688024012,0.00021117070315299611,0.0036514517132515954,0.00602053725092323,0.0006306929817907857,0.004812644028501712,0.001776882751054444,1.0,1.0,1.0,2.9351428506142754,3.52027
0.2456444595247623,0.00021112499206334283,0.003646879509042313,0.006087797467858915,0.0006281739508635112,0.004788113796875635,0.0017561300489551252,1.0,1.0,1.0,2.9351428506142754,3.52027
0.2530882310255127,0.0002110792809736901,0.0036423073048330347,0.006051040096623758,0.0006256549199362344,0.00476358356524954,0.0017357337539859454,1.0,1.0,1.0,2.9351428506142754,3.52027
0.2605320025262631,0.0002107864361026068,0.003637735100623751,0.006014282725388601,0.0006231358890089599,0.004739053333623463,0.0017153947757268604,1.0,1.0,1.0,2.9351428506142754,3.52027
0.2679757740270135,0.00020971083741388964,0.0036331628964144736,0.0059775253541534444,0.0006206168580816854,0.004714523101997368,0.0016950557974677756,1.0,1.0,1.0,2.9351428506142754,3.52027
0.2754195455277639,0.00020863523872517245,0.00362859069220519,0.005940767982918289,0.0006180978271544086,0.004689992870371291,0.0016747168192086973,1.0,1.0,1.0,2.9351428506142754,3.52027
0.2828633170285142,0.00020755964003645535,0.003624018487995907,0.0059040106116831316,0.0006155787962271341,0.004665462638745196,0.0016543778409496123,1.0,1.0,1.0,2.9351428506142754,3.52027
0.2903070885292646,0.00020648404134773816,0.0036194462837866293,0.005867253240447975,0.0006130597652998596,0.004640932407119119,0.001634038862690534,1.0,1.0,1.0,2.9351428506142754,3.52027
0.297750860030015,0.000205408442659021,0.0036148740795773457,0.005830495869212808,0.0006112365244111863,0.004616402175493024,0.001613699884431449,1.0,1.0,1.0,2.9351428506142754,3.52027
0.3051946315307653,0.00020433284397030388,0.003610301875368068,0.005793738497977652,0.0006096169000617603,0.004591871943866947,0.0015933609061723707,1.0,1.0,1.0,2.9351428506142754,3.52027
0.3126384030315157,0.00020325724528158672,0.0036057296711587846,0.005756981126742495,0.0006079972757123341,0.004572619923246699,0.0015730219279132859,1.0,1.0,1.0,2.9351428506142754,3.52027
0.3200821745322661,0.00020218164659286956,0.003601157466949506,0.005720223755507339,0.0006063776513629081,0.004561023147755828,0.0015526829496542009,1.0,1.0,1.0,2.9351428506142754,3.52027
0.3275259460330165,0.00020110604790415243,0.003596585262740223,0.0056834663842721825,0.0006047580270134844,0.004549426372264941,0.0015323439713951226,1.0,1.0,1.0,2.9351428506142754,3.52027
0.3349697175337668,0.00020003044921543527,0.0035920130585309455,0.005646709013037026,0.0006031384026640583,0.004537829596774051,0.0015120049931360378,1.0,1.0,1.0,2.9351428506142754,3.52027
0.3424134890345172,0.0001989548505267181,0.0035880923100039216,0.00560995164180187,0.0006015187783146322,0.004526232821283163,0.0014916660148769593,1.0,1.0,1.0,2.9351428506142754,3.52027
0.3498572605352676,0.00019787925183800098,0.0035871479407782337,0.005575824294415185,0.0005998991539652062,0.004514636045792275,0.0014713270366178742,1.0,1.0,1.0,2.9351428506142754,3.52027
0.357301032036018,0.00019680365314928382,0.003586203571552551,0.0055715129963816125,0.0005982795296157825,0.004503039270301386,0.001450988058358796,1.0,1.0,1.0,2.9351428506142754,3.52027
0.3647448035367684,0.00019572805446056667,0.003585259202326864,0.005567201698348051,0.0005966599052663564,0.004491442494810498,0.0014306490800997111,1.0,1.0,1.0,2.9351428506142754,3.52027
0.3721885750375188,0.000194737833306309,0.003584314833101176,0.005562890400314478,0.0005950402809169304,0.004479845719319627,0.0014103101018406261,1.0,1.0,1.0,2.9351428506142754,3.52027
0.3796323465382691,0.00019375083211611104,0.003583370463875488,0.005558579102280905,0.0005934206565675044,0.004468248943828739,0.0013899711235815478,1.0,1.0,1.0,2.9351428506142754,3.52027
0.3870761180390195,0.0001927638309259136,0.0035824260946498055,0.005554267804247333,0.0005918010322180806,0.004456652168337851,0.0013696321453224628,1.0,1.0,1.0,2.9351428506142754,3.52027
0.3945198895397699,0.0001917768297357156,0.0035814817254241176,0.00554995650621376,0.0005901814078686545,0.004445055392846962,0.0013492931670633845,1.0,1.0,1.0,2.9351428506142754,3.52027
0.4019636610405203,0.00019078982854551818,0.00358053735619843,0.005545645208180187,0.0005872037636116361,0.004433458617356074,0.001330727755065796,1.0,1.0,1.0,2.9351428506142754,3.52027
0.4094074325412706,0.00018980282735532022,0.003579592986972747,0.005541333910146614,0.0005828962689972084,0.004421861841865185,0.001318281191965599,1.0,1.0,1.0,2.9351428506142754,3.52027
0.416851204042021,0.00018881582616512278,0.00357864861774706,0.005537022612113042,0.0005785887743827806,0.0044072301719646,0.0013058346288654084,1.0,1.0,1.0,2.9351428506142754,3.52027
0.4242949755427714,0.00018782882497492536,0.0035777042485213724,0.005532711314079469,0.000574281279768353,0.004373279931873439,0.001293388065765211,1.0,1.0,1.0,2.9351428506142754,3.52027
0.4317387470435218,0.00018684182378472737,0.0035767598792956845,0.0055284000160458965,0.0005699737851539252,0.004339329691782297,0.0012809415026650136,1.0,1.0,1.0,2.9351428506142754,3.52027
0.4391825185442721,0.00018585482259452993,0.003575815510070002,0.005524088718012324,0.0005656662905394975,0.004305379451691136,0.001268494939564823,1.0,1.0,1.0,2.9351428506142754,3.52027
0.4466262900450225,0.00018486782140433197,0.003574871140844314,0.005519777419978751,0.0005613587959250697,0.004271429211599993,0.001256048376464626,1.0,1.0,1.0,2.9351428506142754,3.52027
0.4540700615457729,0.00018388082021413455,0.0035732913035599026,0.005515466121945177,0.0005570513013106419,0.004237478971508849,0.0012436018133644288,1.0,1.0,1.0,2.9351428506142754,3.52027
0.4615138330465232,0.00018289381902393656,0.0035716495123370023,0.005511154824805435,0.0005527438066962143,0.004203528731417688,0.0012311552502642382,1.0,1.0,1.0,2.9351428506142754,3.52027
0.4689576045472736,0.00018190681783373912,0.0035700077211141016,0.00550684352788256,0.0005484363120817865,0.004169578491326546,0.0012187086871640407,1.0,1.0,1.0,2.9351428506142754,3.52027
0.476401376048024,0.0001810079907549198,0.0035683659298912053,0.0055025322309596725,0.000544128817467359,0.004135628251235385,0.0012062621240638502,1.0,1.0,1.0,2.9351428506142754,3.52027
0.4838451475487744,0.00018014927071332827,0.0035667241386683046,0.0054982209340367965,0.0005398213228529311,0.004101678011144242,0.0011938155609636531,1.0,1.0,1.0,2.9351428506142754,3.52027
0.4912889190495247,0.0001792905506717367,0.003565082347445404,0.005493909637113909,0.0005355138282385057,0.004067727771053099,0.0011813689978634558,1.0,1.0,1.0,2.9351428506142754,3.52027
0.4987326905502751,0.00017843183063014518,0.0035634405562225027,0.005489598340191034,0.000531206333624078,0.004033777530961937,0.0011689224347632653,1.0,1.0,1.0,2.9351428506142754,3.52027
0.5061764620510255,0.00017757311058855366,0.003561798764999607,0.005485287043268148,0.0005270376421917442,0.0039998272908707945,0.0011564758716630682,1.0,1.0,1.0,2.9351428506142754,3.52027
0.5136202335517759,0.00017671439054696265,0.0035601569737767065,0.005480975746345272,0.0005233161361431405,0.003965877050779634,0.0011440293085628707,1.0,1.0,1.0,2.9351428506142754,3.52027
0.5210640050525263,0.00017585567050537113,0.0035585151825538058,0.005476664449422386,0.0005195946300945392,0.003931926810688491,0.0011315827454626802,1.0,1.0,1.0,2.9351428506142754,3.52027
0.5285077765532766,0.0001749969504637796,0.0035568733913309094,0.00547235315249951,0.0005158731240459378,0.0039019643166459095,0.001119136182362483,1.0,1.0,1.0,2.9351428506142754,3.52027
0.535951548054027,0.0001741382304221881,0.003555231600108009,0.005468041855576623,0.0005121516179973342,0.0038726325610044777,0.0011066896192622924,1.0,1.0,1.0,2.9351428506142754,3.52027
0.5433953195547774,0.00017327951038059657,0.0035535898088851084,0.005463730558653747,0.0005084301119487329,0.003843300805363028,0.0010942430561620953,1.0,1.0,1.0,2.9351428506142754,3.52027
0.5508390910555278,0.00017242079033900505,0.0035519480176622073,0.005459419261730871,0.0005047086059001315,0.003813969049721578,0.001081796493061898,1.0,1.0,1.0,2.9351428506142754,3.52027
0.5582828625562781,0.00017156207029741353,0.003550156800859886,0.005455107964807985,0.0005009870998515278,0.0037846372940801283,0.0010740468804778945,1.0,1.0,1.0,2.9351428506142754,3.52027
0.5657266340570285,0.000170703350255822,0.003548282535736925,0.005443300848465514,0.0004972655938029265,0.0037553055384386973,0.0010695886790366806,1.0,1.0,1.0,2.9351428506142754,3.52027
0.5731704055577789,0.000169844630214231,0.0035464082706139592,0.0054248049300392445,0.0004935440877543251,0.0037259737827972468,0.0010651304775954606,1.0,1.0,1.0,2.9351428506142754,3.52027
0.5806141770585292,0.00016905513635512677,0.0035445340054909985,0.005406309011612964,0.0004898225817057216,0.0036966420271557976,0.0010606722761542402,1.0,1.0,1.0,2.9351428506142754,3.52027
0.5880579485592796,0.00016836483146289252,0.003542659740368038,0.0053878130931866944,0.00048610107565712023,0.003667310271514348,0.00105621407471302,1.0,1.0,1.0,2.9351428506142754,3.52027
0.59550172006003,0.00016767452657065777,0.003540785475245077,0.005369317174760414,0.0004823795696085189,0.003637978515872916,0.0010517558732717996,1.0,1.0,1.0,2.9351428506142754,3.52027
0.6029454915607804,0.000166984221678423,0.003538911210122116,0.005350821256334144,0.0004786580635599152,0.0036086467602314664,0.0010472976718305794,1.0,1.0,1.0,2.9351428506142754,3.52027
0.6103892630615307,0.0001662939167861882,0.0035370369449991552,0.005332325337907864,0.0004749365575113139,0.0035793150045900167,0.0010428394703893592,1.0,1.0,1.0,2.9351428506142754,3.52027
0.6178330345622811,0.00016560361189395343,0.0035351626798761945,0.005313829419481583,0.00047253366377312606,0.0035499832489485667,0.0010383812689481388,1.0,1.0,1.0,2.9351428506142754,3.52027
0.6252768060630315,0.00016491330700171917,0.0035332884147532286,0.005295333501055313,0.00047017365710751114,0.0035206514933071352,0.0010339230675069186,1.0,1.0,1.0,2.9351428506142754,3.52027
0.6327205775637819,0.00016422300210948442,0.003531414149630268,0.005276837582629033,0.0004678136504418939,0.003506766334418419,0.0010294648660656984,1.0,1.0,1.0,2.9351428506142754,3.52027
0.6401643490645322,0.00016353269721724962,0.003529539884507307,0.005258341664202763,0.0004654536437762767,0.0035035667549731574,0.001025006664624478,1.0,1.0,1.0,2.9351428506142754,3.52027
0.6476081205652826,0.00016284239232501485,0.0035276656193843465,0.005239845745776483,0.0004630936371106618,0.003500367175527878,0.0010205484631832578,1.0,1.0,1.0,2.9351428506142754,3.52027
0.655051892066033,0.00016215208743278008,0.0035257913542613853,0.005221349827350214,0.0004607336304450446,0.003497167596082617,0.0010160902617420441,1.0,1.0,1.0,2.9351428506142754,3.52027
0.6624956635667834,0.00016146178254054582,0.0035227911692392176,0.005202853908923933,0.0004583736237794297,0.0034939680166373383,0.001011632060300824,1.0,1.0,1.0,2.9351428506142754,3.52027
0.6699394350675337,0.00016077147764831105,0.0035179093054424414,0.0052031636719032945,0.0004560136171138125,0.003490768437192077,0.0010071738588596038,1.0,1.0,1.0,2.9351428506142754,3.52027
0.6773832065682841,0.00016008117275607628,0.00351302744164567,0.005259251659264677,0.00045365361044819524,0.0034875688577467976,0.0010027156574183833,1.0,1.0,1.0,2.9351428506142754,3.52027
0.6848269780690345,0.00015941902825986886,0.0035081455778488988,0.00531533964662606,0.0004512936037825803,0.003484369278301537,0.0009982574559771632,1.0,1.0,1.0,2.9351428506142754,3.52027
0.6922707495697848,0.00015893772280527104,0.0035032637140521273,0.005371427633987442,0.0004489335971169631,0.003481169698856276,0.0009937992545359427,1.0,1.0,1.0,2.9351428506142754,3.52027
0.6997145210705352,0.00015845641735067373,0.003498381850255356,0.005427515621348825,0.00044657359045134593,0.003477970119410996,0.0009893410530947225,1.0,1.0,1.0,2.9351428506142754,3.52027
0.7071582925712856,0.00015797511189607647,0.00349349998645858,0.005483603608710207,0.000444213583785731,0.003474770539965735,0.0009848828516535024,1.0,1.0,1.0,2.9351428506142754,3.52027
0.7146020640720361,0.00015749380644147865,0.003488618122661808,0.0055396915960716,0.00044185357712011377,0.0034715709605204564,0.0009914076048867873,1.0,1.0,1.0,2.9351428506142754,3.52027
0.7220458355727865,0.00015701250098688134,0.0034837362588650365,0.005595779583432983,0.00044632746589591494,0.0034683713810751953,0.000998495452238526,1.0,1.0,1.0,2.9351428506142754,3.52027
0.7294896070735368,0.00015653119553228403,0.0034788543950682654,0.005651867570794365,0.00045372835270790436,0.003465171801629916,0.0010055832995902645,1.0,1.0,1.0,2.9351428506142754,3.52027
0.7369333785742872,0.00015604989007768623,0.003473972531271494,0.005707955558155748,0.0004611292395198914,0.003461009439476816,0.0010126711469419967,1.0,1.0,1.0,2.9351428506142754,3.52027
0.7443771500750376,0.00015556858462308892,0.003469090667474723,0.0057640435455171305,0.0004685301263318785,0.003454789443433923,0.0010197589942937352,1.0,1.0,1.0,2.9351428506142754,3.52027
0.751820921575788,0.00015508727916849164,0.0034642088036779465,0.005820131532878513,0.0004759310131438656,0.0034485694473910295,0.001026846841645474,1.0,1.0,1.0,2.9351428506142754,3.52027
0.7592646930765383,0.00015460597371389382,0.003459326939881175,0.005876219520239896,0.0004833318999558527,0.0034423494513481363,0.0010339346889972059,1.0,1.0,1.0,2.9351428506142754,3.52027
0.7667084645772887,0.00015412466825929654,0.0034566967372107247,0.005932307507601278,0.000490732786767842,0.0034361294553052614,0.0010410225363489444,1.0,1.0,1.0,2.9351428506142754,3.52027
0.7741522360780391,0.00015364336280469923,0.0034730661760730393,0.005988395494962661,0.0004981336735798291,0.0034299094592623674,0.001048110383700683,1.0,1.0,1.0,2.9351428506142754,3.52027
0.7815960075787894,0.00015316205735010194,0.003489435614935354,0.006044620809094498,0.0005055345603918162,0.0034236894632194742,0.001055198231052415,1.0,1.0,1.0,2.9351428506142754,3.52027
0.7890397790795398,0.00015268075189550412,0.0035058050537976684,0.006100849523831226,0.0005129354472038033,0.003417469467176581,0.0010622860784041538,1.0,1.0,1.0,2.9351428506142754,3.52027
0.7964835505802902,0.00015242843569401288,0.003522174492659978,0.006157078238567943,0.0005203363340157926,0.003411249471133688,0.0010693739257558923,1.0,1.0,1.0,2.9351428506142754,3.52027
0.8039273220810406,0.00015221388271562873,0.0035385439315222924,0.00621330695330466,0.0005277372208277797,0.003405029475090794,0.0010764617731076243,1.0,1.0,1.0,2.9351428506142754,3.52027
0.8113710935817909,0.00015199932973724407,0.003554913370384607,0.006269535668041388,0.0005351381076397668,0.0033988094790479008,0.001083549620459363,1.0,1.0,1.0,2.9351428506142754,3.52027
